INDEX VERSION 1.131+C:\Users\subash\Desktop\clone\ramana\.metadata\.plugins\org.eclipse.jdt.core
500980999.index
3106731684.index
3737610030.index
1543329823.index
1153181027.index
2463116063.index
2870748702.index
1758923895.index
2354116795.index
1455799341.index
1116690660.index
1071769028.index
3664367029.index
4067153361.index
3924165919.index
3942923427.index
3367046993.index
4234524026.index
3310294967.index
756830699.index
1603770674.index
3853958215.index
3204685393.index
579572627.index
2502637018.index
3337067966.index
1784380690.index
3388106849.index
3025045721.index
2515416493.index
2669865209.index
3854111716.index
492121188.index
2892763504.index
2721604412.index
965149022.index
2527611893.index
3871182865.index
2064252039.index
192305410.index
2446798781.index
2925347329.index
1818828120.index
2621892704.index
4003318933.index
734299705.index
573719999.index
193700590.index
3772761314.index
992579964.index
612326497.index
2390061617.index
2167562808.index
604707681.index
1192306625.index
1261984676.index
725841565.index
2412936832.index
1812982715.index
749806773.index
1957903045.index
2186860032.index
696565167.index
2465872850.index
154970409.index
1386297229.index
2291663339.index
3053459926.index
1020824435.index
173623667.index
1734342978.index
2689258026.index
52200708.index
430331845.index
4191067299.index
3158194705.index
802735448.index
1522165915.index
4113392068.index
2126810977.index
2234800833.index
3174618836.index
643438263.index
2649737249.index
2895670722.index
2967387332.index
3076596107.index
3171763303.index
4132745504.index
3990896815.index
2682644979.index
2205233630.index
3842796468.index
1611529887.index
1815474180.index
4183624407.index
2470338204.index
128847562.index
818384945.index
2020344767.index
1600906407.index
2118389639.index
